row_id,energy
94993,2034.8695151226507
94994,1944.6671519300735
94995,1887.5764232100883
94996,1850.9732525643608
94997,1827.3057237255202
94998,1811.916911674952
94999,1801.8743197425633
95000,1795.3048506060566
95001,1791.00057007241
95002,1788.177500793695
95003,1786.3246576270167
95004,1785.1080503619216
95005,1784.3089707518525
95006,1783.784025824781
95007,1783.4391262386555
95008,1783.2125011938479
95009,1783.0635832647745
95010,1782.9657240446477
95011,1782.901415776278
95012,1782.8591548850713
95013,1782.8313823875444
95014,1782.8131310731433
95015,1782.8011367629078
95016,1782.7932543773863
95017,1782.7880742445543
95018,1782.7846699693146
95019,1782.782432748794
95020,1782.7809624921263
95021,1782.7799962684471
95022,1782.779361285157
95023,1782.7789439865037
95024,1782.7786697459255
95025,1782.7784895203272
95026,1782.7783710795488
95027,1782.7782932425569
95028,1782.7782420895883
95029,1782.7782084728437
95030,1782.7781863805671
95031,1782.7781718619492
95032,1782.7781623205938
95033,1782.7781560501987
95034,1782.7781519294156
95035,1782.778149221317
95036,1782.7781474416074
95037,1782.7781462720168
95038,1782.7781455033842
95039,1782.7781449982542
95040,1782.7781446662923
95041,1782.7781444481327
95042,1782.7781443047631
95043,1782.7781442105431
95044,1782.7781441486231
95045,1782.7781441079308
95046,1782.7781440811882
95047,1782.7781440636138
95048,1782.7781440520644
95049,1782.7781440444735
95050,1782.7781440394856
95051,1782.778144036208
95052,1782.778144034053
95053,1782.7781440326373
95054,1782.7781440317062
95055,1782.778144031095
95056,1782.7781440306928
95057,1782.7781440304284
95058,1782.7781440302542
95059,1782.7781440301403
95060,1782.7781440300657
95061,1782.7781440300166
95062,1782.778144029985
95063,1782.7781440299646
95064,1782.7781440299502
95065,1782.7781440299407
95066,1782.7781440299343
95067,1782.7781440299295
95068,1782.7781440299266
95069,1782.778144029925
95070,1782.7781440299234
95071,1782.7781440299234
95072,1782.7781440299234
95073,1782.7781440299234
95074,1782.7781440299234
95075,1782.7781440299234
95076,1782.7781440299234
95077,1782.7781440299234
95078,1782.7781440299234
95079,1782.7781440299234
95080,1782.7781440299234
95081,1782.7781440299234
95082,1782.7781440299234
95083,1782.7781440299234
95084,1782.7781440299234
95085,1782.7781440299234
95086,1782.7781440299234
95087,1782.7781440299234
95088,1782.7781440299234
95089,1782.7781440299234
95090,1782.7781440299234
95091,1782.7781440299234
95092,1782.7781440299234
95093,1782.7781440299234
95094,1782.7781440299234
95095,1782.7781440299234
95096,1782.7781440299234
95097,1782.7781440299234
95098,1782.7781440299234
95099,1782.7781440299234
95100,1782.7781440299234
95101,1782.7781440299234
95102,1782.7781440299234
95103,1782.7781440299234
95104,1782.7781440299234
95105,1782.7781440299234
95106,1782.7781440299234
95107,1782.7781440299234
95108,1782.7781440299234
95109,1782.7781440299234
95110,1782.7781440299234
95111,1782.7781440299234
95112,1782.7781440299234
95113,1782.7781440299234
95114,1782.7781440299234
95115,1782.7781440299234
95116,1782.7781440299234
95117,1782.7781440299234
95118,1782.7781440299234
95119,1782.7781440299234
95120,1782.7781440299234
95121,1782.7781440299234
95122,1782.7781440299234
95123,1782.7781440299234
95124,1782.7781440299234
95125,1782.7781440299234
95126,1782.7781440299234
95127,1782.7781440299234
95128,1782.7781440299234
95129,1782.7781440299234
95130,1782.7781440299234
95131,1782.7781440299234
95132,1782.7781440299234
95133,1782.7781440299234
95134,1782.7781440299234
95135,1782.7781440299234
95136,1782.7781440299234
95137,1782.7781440299234
95138,1782.7781440299234
95139,1782.7781440299234
95140,1782.7781440299234
95141,1782.7781440299234
95142,1782.7781440299234
95143,1782.7781440299234
95144,1782.7781440299234
95145,1782.7781440299234
95146,1782.7781440299234
95147,1782.7781440299234
95148,1782.7781440299234
95149,1782.7781440299234
95150,1782.7781440299234
95151,1782.7781440299234
95152,1782.7781440299234
95153,1782.7781440299234
95154,1782.7781440299234
95155,1782.7781440299234
95156,1782.7781440299234
95157,1782.7781440299234
95158,1782.7781440299234
95159,1782.7781440299234
95160,1782.7781440299234
95161,1782.7781440299234
95162,1782.7781440299234
95163,1782.7781440299234
95164,1782.7781440299234
95165,1782.7781440299234
95166,1782.7781440299234
95167,1782.7781440299234
95168,1782.7781440299234
95169,1782.7781440299234
95170,1782.7781440299234
95171,1782.7781440299234
95172,1782.7781440299234
95173,1782.7781440299234
95174,1782.7781440299234
95175,1782.7781440299234
95176,1782.7781440299234
95177,1782.7781440299234
95178,1782.7781440299234
95179,1782.7781440299234
95180,1782.7781440299234
95181,1782.7781440299234
95182,1782.7781440299234
95183,1782.7781440299234
95184,1782.7781440299234
95185,1782.7781440299234
95186,1782.7781440299234
95187,1782.7781440299234
95188,1782.7781440299234
95189,1782.7781440299234
95190,1782.7781440299234
95191,1782.7781440299234
95192,1782.7781440299234
95193,1782.7781440299234
95194,1782.7781440299234
95195,1782.7781440299234
95196,1782.7781440299234
95197,1782.7781440299234
95198,1782.7781440299234
95199,1782.7781440299234
95200,1782.7781440299234
95201,1782.7781440299234
95202,1782.7781440299234
95203,1782.7781440299234
95204,1782.7781440299234
95205,1782.7781440299234
95206,1782.7781440299234
95207,1782.7781440299234
95208,1782.7781440299234
95209,1782.7781440299234
95210,1782.7781440299234
95211,1782.7781440299234
95212,1782.7781440299234
95213,1782.7781440299234
95214,1782.7781440299234
95215,1782.7781440299234
95216,1782.7781440299234
95217,1782.7781440299234
95218,1782.7781440299234
95219,1782.7781440299234
95220,1782.7781440299234
95221,1782.7781440299234
95222,1782.7781440299234
95223,1782.7781440299234
95224,1782.7781440299234
95225,1782.7781440299234
95226,1782.7781440299234
95227,1782.7781440299234
95228,1782.7781440299234
95229,1782.7781440299234
95230,1782.7781440299234
95231,1782.7781440299234
95232,1782.7781440299234
95233,1782.7781440299234
95234,1782.7781440299234
95235,1782.7781440299234
95236,1782.7781440299234
95237,1782.7781440299234
95238,1782.7781440299234
95239,1782.7781440299234
95240,1782.7781440299234
95241,1782.7781440299234
95242,1782.7781440299234
95243,1782.7781440299234
95244,1782.7781440299234
95245,1782.7781440299234
95246,1782.7781440299234
95247,1782.7781440299234
95248,1782.7781440299234
95249,1782.7781440299234
95250,1782.7781440299234
95251,1782.7781440299234
95252,1782.7781440299234
95253,1782.7781440299234
95254,1782.7781440299234
95255,1782.7781440299234
95256,1782.7781440299234
95257,1782.7781440299234
95258,1782.7781440299234
95259,1782.7781440299234
95260,1782.7781440299234
95261,1782.7781440299234
95262,1782.7781440299234
95263,1782.7781440299234
95264,1782.7781440299234
95265,1782.7781440299234
95266,1782.7781440299234
95267,1782.7781440299234
95268,1782.7781440299234
95269,1782.7781440299234
95270,1782.7781440299234
95271,1782.7781440299234
95272,1782.7781440299234
95273,1782.7781440299234
95274,1782.7781440299234
95275,1782.7781440299234
95276,1782.7781440299234
95277,1782.7781440299234
95278,1782.7781440299234
95279,1782.7781440299234
95280,1782.7781440299234
95281,1782.7781440299234
95282,1782.7781440299234
95283,1782.7781440299234
95284,1782.7781440299234
95285,1782.7781440299234
95286,1782.7781440299234
95287,1782.7781440299234
95288,1782.7781440299234
95289,1782.7781440299234
95290,1782.7781440299234
95291,1782.7781440299234
95292,1782.7781440299234
95293,1782.7781440299234
95294,1782.7781440299234
95295,1782.7781440299234
95296,1782.7781440299234
95297,1782.7781440299234
95298,1782.7781440299234
95299,1782.7781440299234
95300,1782.7781440299234
95301,1782.7781440299234
95302,1782.7781440299234
95303,1782.7781440299234
95304,1782.7781440299234
95305,1782.7781440299234
95306,1782.7781440299234
95307,1782.7781440299234
95308,1782.7781440299234
95309,1782.7781440299234
95310,1782.7781440299234
95311,1782.7781440299234
95312,1782.7781440299234
95313,1782.7781440299234
95314,1782.7781440299234
95315,1782.7781440299234
95316,1782.7781440299234
95317,1782.7781440299234
95318,1782.7781440299234
95319,1782.7781440299234
95320,1782.7781440299234
95321,1782.7781440299234
95322,1782.7781440299234
95323,1782.7781440299234
95324,1782.7781440299234
95325,1782.7781440299234
95326,1782.7781440299234
95327,1782.7781440299234
95328,1782.7781440299234
95329,1782.7781440299234
95330,1782.7781440299234
95331,1782.7781440299234
95332,1782.7781440299234
95333,1782.7781440299234
95334,1782.7781440299234
95335,1782.7781440299234
95336,1782.7781440299234
95337,1782.7781440299234
95338,1782.7781440299234
95339,1782.7781440299234
95340,1782.7781440299234
95341,1782.7781440299234
95342,1782.7781440299234
95343,1782.7781440299234
95344,1782.7781440299234
95345,1782.7781440299234
95346,1782.7781440299234
95347,1782.7781440299234
95348,1782.7781440299234
95349,1782.7781440299234
95350,1782.7781440299234
95351,1782.7781440299234
95352,1782.7781440299234
95353,1782.7781440299234
95354,1782.7781440299234
95355,1782.7781440299234
95356,1782.7781440299234
95357,1782.7781440299234
95358,1782.7781440299234
95359,1782.7781440299234
95360,1782.7781440299234
95361,1782.7781440299234
95362,1782.7781440299234
95363,1782.7781440299234
95364,1782.7781440299234
95365,1782.7781440299234
95366,1782.7781440299234
95367,1782.7781440299234
95368,1782.7781440299234
95369,1782.7781440299234
95370,1782.7781440299234
95371,1782.7781440299234
95372,1782.7781440299234
95373,1782.7781440299234
95374,1782.7781440299234
95375,1782.7781440299234
95376,1782.7781440299234
95377,1782.7781440299234
95378,1782.7781440299234
95379,1782.7781440299234
95380,1782.7781440299234
95381,1782.7781440299234
95382,1782.7781440299234
95383,1782.7781440299234
95384,1782.7781440299234
95385,1782.7781440299234
95386,1782.7781440299234
95387,1782.7781440299234
95388,1782.7781440299234
95389,1782.7781440299234
95390,1782.7781440299234
95391,1782.7781440299234
95392,1782.7781440299234
95393,1782.7781440299234
95394,1782.7781440299234
95395,1782.7781440299234
95396,1782.7781440299234
95397,1782.7781440299234
95398,1782.7781440299234
95399,1782.7781440299234
95400,1782.7781440299234
95401,1782.7781440299234
95402,1782.7781440299234
95403,1782.7781440299234
95404,1782.7781440299234
95405,1782.7781440299234
95406,1782.7781440299234
95407,1782.7781440299234
95408,1782.7781440299234
95409,1782.7781440299234
95410,1782.7781440299234
95411,1782.7781440299234
95412,1782.7781440299234
95413,1782.7781440299234
95414,1782.7781440299234
95415,1782.7781440299234
95416,1782.7781440299234
95417,1782.7781440299234
95418,1782.7781440299234
95419,1782.7781440299234
95420,1782.7781440299234
95421,1782.7781440299234
95422,1782.7781440299234
95423,1782.7781440299234
95424,1782.7781440299234
95425,1782.7781440299234
95426,1782.7781440299234
95427,1782.7781440299234
95428,1782.7781440299234
95429,1782.7781440299234
95430,1782.7781440299234
95431,1782.7781440299234
95432,1782.7781440299234
95433,1782.7781440299234
95434,1782.7781440299234
95435,1782.7781440299234
95436,1782.7781440299234
95437,1782.7781440299234
95438,1782.7781440299234
95439,1782.7781440299234
95440,1782.7781440299234
95441,1782.7781440299234
95442,1782.7781440299234
95443,1782.7781440299234
95444,1782.7781440299234
95445,1782.7781440299234
95446,1782.7781440299234
95447,1782.7781440299234
95448,1782.7781440299234
95449,1782.7781440299234
95450,1782.7781440299234
95451,1782.7781440299234
95452,1782.7781440299234
95453,1782.7781440299234
95454,1782.7781440299234
95455,1782.7781440299234
95456,1782.7781440299234
95457,1782.7781440299234
95458,1782.7781440299234
95459,1782.7781440299234
95460,1782.7781440299234
95461,1782.7781440299234
95462,1782.7781440299234
95463,1782.7781440299234
95464,1782.7781440299234
95465,1782.7781440299234
95466,1782.7781440299234
95467,1782.7781440299234
95468,1782.7781440299234
95469,1782.7781440299234
95470,1782.7781440299234
95471,1782.7781440299234
95472,1782.7781440299234
95473,1782.7781440299234
95474,1782.7781440299234
95475,1782.7781440299234
95476,1782.7781440299234
95477,1782.7781440299234
95478,1782.7781440299234
95479,1782.7781440299234
95480,1782.7781440299234
95481,1782.7781440299234
95482,1782.7781440299234
95483,1782.7781440299234
95484,1782.7781440299234
95485,1782.7781440299234
95486,1782.7781440299234
95487,1782.7781440299234
95488,1782.7781440299234
95489,1782.7781440299234
95490,1782.7781440299234
95491,1782.7781440299234
95492,1782.7781440299234
95493,1782.7781440299234
95494,1782.7781440299234
95495,1782.7781440299234
95496,1782.7781440299234
95497,1782.7781440299234
95498,1782.7781440299234
95499,1782.7781440299234
95500,1782.7781440299234
95501,1782.7781440299234
95502,1782.7781440299234
95503,1782.7781440299234
95504,1782.7781440299234
95505,1782.7781440299234
95506,1782.7781440299234
95507,1782.7781440299234
95508,1782.7781440299234
95509,1782.7781440299234
95510,1782.7781440299234
95511,1782.7781440299234
95512,1782.7781440299234
95513,1782.7781440299234
95514,1782.7781440299234
95515,1782.7781440299234
95516,1782.7781440299234
95517,1782.7781440299234
95518,1782.7781440299234
95519,1782.7781440299234
95520,1782.7781440299234
95521,1782.7781440299234
95522,1782.7781440299234
95523,1782.7781440299234
95524,1782.7781440299234
95525,1782.7781440299234
95526,1782.7781440299234
95527,1782.7781440299234
95528,1782.7781440299234
95529,1782.7781440299234
95530,1782.7781440299234
95531,1782.7781440299234
95532,1782.7781440299234
95533,1782.7781440299234
95534,1782.7781440299234
95535,1782.7781440299234
95536,1782.7781440299234
95537,1782.7781440299234
95538,1782.7781440299234
95539,1782.7781440299234
95540,1782.7781440299234
95541,1782.7781440299234
95542,1782.7781440299234
95543,1782.7781440299234
95544,1782.7781440299234
95545,1782.7781440299234
95546,1782.7781440299234
95547,1782.7781440299234
95548,1782.7781440299234
95549,1782.7781440299234
95550,1782.7781440299234
95551,1782.7781440299234
95552,1782.7781440299234
95553,1782.7781440299234
95554,1782.7781440299234
95555,1782.7781440299234
95556,1782.7781440299234
95557,1782.7781440299234
95558,1782.7781440299234
95559,1782.7781440299234
95560,1782.7781440299234
95561,1782.7781440299234
95562,1782.7781440299234
95563,1782.7781440299234
95564,1782.7781440299234
95565,1782.7781440299234
95566,1782.7781440299234
95567,1782.7781440299234
95568,1782.7781440299234
95569,1782.7781440299234
95570,1782.7781440299234
95571,1782.7781440299234
95572,1782.7781440299234
95573,1782.7781440299234
95574,1782.7781440299234
95575,1782.7781440299234
95576,1782.7781440299234
95577,1782.7781440299234
95578,1782.7781440299234
95579,1782.7781440299234
95580,1782.7781440299234
95581,1782.7781440299234
95582,1782.7781440299234
95583,1782.7781440299234
95584,1782.7781440299234
95585,1782.7781440299234
95586,1782.7781440299234
95587,1782.7781440299234
95588,1782.7781440299234
95589,1782.7781440299234
95590,1782.7781440299234
95591,1782.7781440299234
95592,1782.7781440299234
95593,1782.7781440299234
95594,1782.7781440299234
95595,1782.7781440299234
95596,1782.7781440299234
95597,1782.7781440299234
95598,1782.7781440299234
95599,1782.7781440299234
95600,1782.7781440299234
95601,1782.7781440299234
95602,1782.7781440299234
95603,1782.7781440299234
95604,1782.7781440299234
95605,1782.7781440299234
95606,1782.7781440299234
95607,1782.7781440299234
95608,1782.7781440299234
95609,1782.7781440299234
95610,1782.7781440299234
95611,1782.7781440299234
95612,1782.7781440299234
95613,1782.7781440299234
95614,1782.7781440299234
95615,1782.7781440299234
95616,1782.7781440299234
95617,1782.7781440299234
95618,1782.7781440299234
95619,1782.7781440299234
95620,1782.7781440299234
95621,1782.7781440299234
95622,1782.7781440299234
95623,1782.7781440299234
95624,1782.7781440299234
95625,1782.7781440299234
95626,1782.7781440299234
95627,1782.7781440299234
95628,1782.7781440299234
95629,1782.7781440299234
95630,1782.7781440299234
95631,1782.7781440299234
95632,1782.7781440299234
95633,1782.7781440299234
95634,1782.7781440299234
95635,1782.7781440299234
95636,1782.7781440299234
95637,1782.7781440299234
95638,1782.7781440299234
95639,1782.7781440299234
95640,1782.7781440299234
95641,1782.7781440299234
95642,1782.7781440299234
95643,1782.7781440299234
95644,1782.7781440299234
95645,1782.7781440299234
95646,1782.7781440299234
95647,1782.7781440299234
95648,1782.7781440299234
95649,1782.7781440299234
95650,1782.7781440299234
95651,1782.7781440299234
95652,1782.7781440299234
95653,1782.7781440299234
95654,1782.7781440299234
95655,1782.7781440299234
95656,1782.7781440299234
95657,1782.7781440299234
95658,1782.7781440299234
95659,1782.7781440299234
95660,1782.7781440299234
95661,1782.7781440299234
95662,1782.7781440299234
95663,1782.7781440299234
95664,1782.7781440299234
95665,1782.7781440299234
95666,1782.7781440299234
95667,1782.7781440299234
95668,1782.7781440299234
95669,1782.7781440299234
95670,1782.7781440299234
95671,1782.7781440299234
95672,1782.7781440299234
95673,1782.7781440299234
95674,1782.7781440299234
95675,1782.7781440299234
95676,1782.7781440299234
95677,1782.7781440299234
95678,1782.7781440299234
95679,1782.7781440299234
95680,1782.7781440299234
95681,1782.7781440299234
95682,1782.7781440299234
95683,1782.7781440299234
95684,1782.7781440299234
95685,1782.7781440299234
95686,1782.7781440299234
95687,1782.7781440299234
95688,1782.7781440299234
95689,1782.7781440299234
95690,1782.7781440299234
95691,1782.7781440299234
95692,1782.7781440299234
95693,1782.7781440299234
95694,1782.7781440299234
95695,1782.7781440299234
95696,1782.7781440299234
95697,1782.7781440299234
95698,1782.7781440299234
95699,1782.7781440299234
95700,1782.7781440299234
95701,1782.7781440299234
95702,1782.7781440299234
95703,1782.7781440299234
95704,1782.7781440299234
95705,1782.7781440299234
95706,1782.7781440299234
95707,1782.7781440299234
95708,1782.7781440299234
95709,1782.7781440299234
95710,1782.7781440299234
95711,1782.7781440299234
95712,1782.7781440299234
95713,1782.7781440299234
95714,1782.7781440299234
95715,1782.7781440299234
95716,1782.7781440299234
95717,1782.7781440299234
95718,1782.7781440299234
95719,1782.7781440299234
95720,1782.7781440299234
95721,1782.7781440299234
95722,1782.7781440299234
95723,1782.7781440299234
95724,1782.7781440299234
95725,1782.7781440299234
95726,1782.7781440299234
95727,1782.7781440299234
95728,1782.7781440299234
95729,1782.7781440299234
95730,1782.7781440299234
95731,1782.7781440299234
95732,1782.7781440299234
95733,1782.7781440299234
95734,1782.7781440299234
95735,1782.7781440299234
95736,1782.7781440299234
95737,1782.7781440299234
95738,1782.7781440299234
95739,1782.7781440299234
95740,1782.7781440299234
95741,1782.7781440299234
95742,1782.7781440299234
95743,1782.7781440299234
95744,1782.7781440299234
95745,1782.7781440299234
95746,1782.7781440299234
95747,1782.7781440299234
95748,1782.7781440299234
95749,1782.7781440299234
95750,1782.7781440299234
95751,1782.7781440299234
95752,1782.7781440299234
95753,1782.7781440299234
95754,1782.7781440299234
95755,1782.7781440299234
95756,1782.7781440299234
95757,1782.7781440299234
95758,1782.7781440299234
95759,1782.7781440299234
95760,1782.7781440299234
95761,1782.7781440299234
